Wavelength (nm),% Transmission,,
2600,60.97968,,
2599,60.89179,,
2598,60.7878,,
2597,60.66919,,
2596,60.55086,,
2595,60.40473,,
2594,60.2598,,
2593,60.1184,,
2592,59.94663,,
2591,59.79915,,
2590,59.62446,,
2589,59.46274,,
2588,59.32106,,
2587,59.16343,,
2586,59.00568,,
2585,58.90474,,
2584,58.74331,,
2583,58.65089,,
2582,58.58859,,
2581,58.51899,,
2580,58.4444,,
2579,58.39695,,
2578,58.36266,,
2577,58.29357,,
2576,58.26591,,
2575,58.27881,,
2574,58.26528,,
2573,58.25668,,
2572,58.25178,,
2571,58.23699,,
2570,58.19769,,
2569,58.16864,,
2568,58.13193,,
2567,58.0575,,
2566,58.05274,,
2565,58.01897,,
2564,57.9925,,
2563,57.97587,,
2562,57.89033,,
2561,57.86155,,
2560,57.82332,,
2559,57.78577,,
2558,57.78234,,
2557,57.77997,,
2556,57.74788,,
2555,57.73615,,
2554,57.73755,,
2553,57.73449,,
2552,57.72066,,
2551,57.70159,,
2550,57.69839,,
2549,57.67626,,
2548,57.64003,,
2547,57.59948,,
2546,57.57426,,
2545,57.541,,
2544,57.4768,,
2543,57.44747,,
2542,57.3664,,
2541,57.30007,,
2540,57.21676,,
2539,57.10443,,
2538,57.00549,,
2537,56.88032,,
2536,56.74702,,
2535,56.582,,
2534,56.40563,,
2533,56.25417,,
2532,56.11149,,
2531,55.93006,,
2530,55.69946,,
2529,55.51472,,
2528,55.35292,,
2527,55.15226,,
2526,54.94941,,
2525,54.78396,,
2524,54.59607,,
2523,54.39926,,
2522,54.18242,,
2521,54.01029,,
2520,53.86326,,
2519,53.73141,,
2518,53.58271,,
2517,53.45108,,
2516,53.32791,,
2515,53.23527,,
2514,53.17279,,
2513,53.11607,,
2512,53.10264,,
2511,53.10542,,
2510,53.11409,,
2509,53.13374,,
2508,53.20216,,
2507,53.25891,,
2506,53.33466,,
2505,53.3995,,
2504,53.48515,,
2503,53.5961,,
2502,53.69297,,
2501,53.7701,,
2500,53.81514,,
2499,53.8846,,
2498,53.96746,,
2497,54.03917,,
2496,54.09446,,
2495,54.15344,,
2494,54.18408,,
2493,54.20924,,
2492,54.25474,,
2491,54.30696,,
2490,54.38095,,
2489,54.43399,,
2488,54.47489,,
2487,54.48342,,
2486,54.47493,,
2485,54.45802,,
2484,54.4503,,
2483,54.39887,,
2482,54.32697,,
2481,54.20404,,
2480,54.0062,,
2479,53.79697,,
2478,53.57005,,
2477,53.30678,,
2476,53.00552,,
2475,52.68945,,
2474,52.32474,,
2473,51.93067,,
2472,51.55425,,
2471,51.1584,,
2470,50.7882,,
2469,50.44073,,
2468,50.07858,,
2467,49.76793,,
2466,49.49411,,
2465,49.30444,,
2464,49.21912,,
2463,49.20534,,
2462,49.24408,,
2461,49.35961,,
2460,49.54371,,
2459,49.78606,,
2458,50.09329,,
2457,50.45771,,
2456,50.83386,,
2455,51.21594,,
2454,51.61811,,
2453,52.01503,,
2452,52.43149,,
2451,52.85372,,
2450,53.29996,,
2449,53.74843,,
2448,54.20355,,
2447,54.66089,,
2446,55.09549,,
2445,55.51628,,
2444,55.89902,,
2443,56.2734,,
2442,56.64682,,
2441,56.97361,,
2440,57.26742,,
2439,57.53002,,
2438,57.77389,,
2437,57.96975,,
2436,58.13457,,
2435,58.29007,,
2434,58.44144,,
2433,58.57704,,
2432,58.68688,,
2431,58.76761,,
2430,58.82975,,
2429,58.87103,,
2428,58.91754,,
2427,58.98267,,
2426,59.01979,,
2425,59.02149,,
2424,58.99729,,
2423,58.96981,,
2422,58.92396,,
2421,58.86697,,
2420,58.81379,,
2419,58.75289,,
2418,58.66995,,
2417,58.57362,,
2416,58.45355,,
2415,58.29805,,
2414,58.12262,,
2413,57.94353,,
2412,57.77515,,
2411,57.60154,,
2410,57.43577,,
2409,57.25142,,
2408,57.06433,,
2407,56.89617,,
2406,56.75313,,
2405,56.64295,,
2404,56.57007,,
2403,56.54954,,
2402,56.53607,,
2401,56.5332,,
2400,56.55138,,
2399,56.58759,,
2398,56.63876,,
2397,56.71487,,
2396,56.81842,,
2395,56.9269,,
2394,57.00827,,
2393,57.07969,,
2392,57.16149,,
2391,57.24887,,
2390,57.33818,,
2389,57.41332,,
2388,57.49082,,
2387,57.57859,,
2386,57.67976,,
2385,57.77175,,
2384,57.84662,,
2383,57.90403,,
2382,57.95446,,
2381,57.97608,,
2380,57.99015,,
2379,58.0081,,
2378,58.0216,,
2377,58.01353,,
2376,57.99315,,
2375,57.96028,,
2374,57.90877,,
2373,57.8614,,
2372,57.8159,,
2371,57.78724,,
2370,57.77865,,
2369,57.77197,,
2368,57.76925,,
2367,57.77014,,
2366,57.76877,,
2365,57.78604,,
2364,57.80217,,
2363,57.82717,,
2362,57.89685,,
2361,57.95351,,
2360,57.98705,,
2359,57.99994,,
2358,58.00848,,
2357,58.0032,,
2356,57.98231,,
2355,57.95436,,
2354,57.94143,,
2353,57.94834,,
2352,57.98416,,
2351,58.00196,,
2350,58.02877,,
2349,58.06812,,
2348,58.11181,,
2347,58.14428,,
2346,58.19176,,
2345,58.26895,,
2344,58.32604,,
2343,58.34895,,
2342,58.352,,
2341,58.32671,,
2340,58.25331,,
2339,58.17649,,
2338,58.09699,,
2337,58.00697,,
2336,57.90695,,
2335,57.75648,,
2334,57.57167,,
2333,57.39517,,
2332,57.17538,,
2331,56.92116,,
2330,56.65641,,
2329,56.41963,,
2328,56.17324,,
2327,55.86201,,
2326,55.50163,,
2325,55.13306,,
2324,54.7373,,
2323,54.28661,,
2322,53.84777,,
2321,53.43533,,
2320,53.08546,,
2319,52.78906,,
2318,52.52958,,
2317,52.31845,,
2316,52.19655,,
2315,52.14204,,
2314,52.14228,,
2313,52.20239,,
2312,52.33255,,
2311,52.47648,,
2310,52.61105,,
2309,52.74056,,
2308,52.85672,,
2307,52.96874,,
2306,53.07701,,
2305,53.17718,,
2304,53.34136,,
2303,53.50535,,
2302,53.6624,,
2301,53.84116,,
2300,54.03673,,
2299,54.24874,,
2298,54.4425,,
2297,54.6891,,
2296,54.93691,,
2295,55.24867,,
2294,55.52657,,
2293,55.78482,,
2292,56.04491,,
2291,56.3434,,
2290,56.6124,,
2289,56.88327,,
2288,57.17544,,
2287,57.46627,,
2286,57.75435,,
2285,58.08143,,
2284,58.33953,,
2283,58.59465,,
2282,58.81793,,
2281,59.02215,,
2280,59.20345,,
2279,59.37464,,
2278,59.52866,,
2277,59.71956,,
2276,59.92782,,
2275,60.20036,,
2274,60.5543,,
2273,60.93314,,
2272,61.37171,,
2271,61.8501,,
2270,62.38054,,
2269,62.95522,,
2268,63.51378,,
2267,64.12991,,
2266,64.72447,,
2265,65.31766,,
2264,65.88702,,
2263,66.48068,,
2262,67.09933,,
2261,67.66616,,
2260,68.20186,,
2259,68.73751,,
2258,69.25177,,
2257,69.75515,,
2256,70.22593,,
2255,70.72691,,
2254,71.18105,,
2253,71.60784,,
2252,72.01197,,
2251,72.4305,,
2250,72.84724,,
2249,73.21565,,
2248,73.50274,,
2247,73.82797,,
2246,74.10804,,
2245,74.35807,,
2244,74.56544,,
2243,74.75165,,
2242,74.91219,,
2241,75.10176,,
2240,75.2406,,
2239,75.38546,,
2238,75.48762,,
2237,75.57905,,
2236,75.64981,,
2235,75.74454,,
2234,75.83219,,
2233,75.93794,,
2232,76.03289,,
2231,76.14009,,
2230,76.25582,,
2229,76.3559,,
2228,76.48758,,
2227,76.55543,,
2226,76.67135,,
2225,76.72511,,
2224,76.78828,,
2223,76.83704,,
2222,76.88277,,
2221,76.9071,,
2220,76.89774,,
2219,76.91239,,
2218,76.88568,,
2217,76.85724,,
2216,76.81962,,
2215,76.80009,,
2214,76.7581,,
2213,76.73233,,
2212,76.71297,,
2211,76.67741,,
2210,76.68536,,
2209,76.69929,,
2208,76.71947,,
2207,76.71093,,
2206,76.70386,,
2205,76.7255,,
2204,76.79126,,
2203,76.78624,,
2202,76.80911,,
2201,76.79017,,
2200,76.78749,,
2199,76.79911,,
2198,76.74957,,
2197,76.70325,,
2196,76.65471,,
2195,76.60418,,
2194,76.5408,,
2193,76.50294,,
2192,76.45907,,
2191,76.44145,,
2190,76.43851,,
2189,76.46417,,
2188,76.52359,,
2187,76.60341,,
2186,76.66458,,
2185,76.71836,,
2184,76.81342,,
2183,76.8648,,
2182,76.90121,,
2181,76.91057,,
2180,76.90437,,
2179,76.84449,,
2178,76.78382,,
2177,76.66777,,
2176,76.52445,,
2175,76.32559,,
2174,76.06203,,
2173,75.778,,
2172,75.41895,,
2171,75.01885,,
2170,74.57269,,
2169,74.15394,,
2168,73.73217,,
2167,73.36965,,
2166,73.12108,,
2165,72.95261,,
2164,72.8977,,
2163,72.92433,,
2162,73.09929,,
2161,73.34067,,
2160,73.64255,,
2159,73.98598,,
2158,74.32181,,
2157,74.73592,,
2156,75.10159,,
2155,75.41832,,
2154,75.67927,,
2153,75.90181,,
2152,76.05169,,
2151,76.21274,,
2150,76.28335,,
2149,76.30359,,
2148,76.28034,,
2147,76.21254,,
2146,76.10958,,
2145,75.96437,,
2144,75.77804,,
2143,75.56161,,
2142,75.36395,,
2141,75.20254,,
2140,74.99918,,
2139,74.86899,,
2138,74.8078,,
2137,74.8393,,
2136,74.94834,,
2135,75.12856,,
2134,75.3577,,
2133,75.64039,,
2132,76.01151,,
2131,76.31723,,
2130,76.61542,,
2129,76.90431,,
2128,77.13326,,
2127,77.35846,,
2126,77.52524,,
2125,77.67126,,
2124,77.76894,,
2123,77.88059,,
2122,77.96686,,
2121,78.03529,,
2120,78.1029,,
2119,78.1493,,
2118,78.22611,,
2117,78.30321,,
2116,78.34114,,
2115,78.38569,,
2114,78.42191,,
2113,78.47314,,
2112,78.50875,,
2111,78.55557,,
2110,78.57904,,
2109,78.59997,,
2108,78.6429,,
2107,78.69067,,
2106,78.71607,,
2105,78.73764,,
2104,78.75779,,
2103,78.77155,,
2102,78.78478,,
2101,78.77669,,
2100,78.78171,,
2099,78.81772,,
2098,78.84291,,
2097,78.86689,,
2096,78.89752,,
2095,78.93533,,
2094,78.96764,,
2093,79.00352,,
2092,79.00672,,
2091,79.00439,,
2090,79.03629,,
2089,79.09671,,
2088,79.12108,,
2087,79.13895,,
2086,79.17266,,
2085,79.24028,,
2084,79.30556,,
2083,79.34234,,
2082,79.40679,,
2081,79.45661,,
2080,79.52857,,
2079,79.60015,,
2078,79.66953,,
2077,79.72911,,
2076,79.81037,,
2075,79.89019,,
2074,79.94949,,
2073,80.01627,,
2072,80.08109,,
2071,80.15289,,
2070,80.222,,
2069,80.31001,,
2068,80.39043,,
2067,80.44089,,
2066,80.50942,,
2065,80.58105,,
2064,80.65051,,
2063,80.70558,,
2062,80.75217,,
2061,80.81533,,
2060,80.87352,,
2059,80.92753,,
2058,80.99524,,
2057,81.03014,,
2056,81.07133,,
2055,81.13069,,
2054,81.17665,,
2053,81.22093,,
2052,81.24851,,
2051,81.2889,,
2050,81.34137,,
2049,81.38328,,
2048,81.43854,,
2047,81.48472,,
2046,81.5126,,
2045,81.55474,,
2044,81.59566,,
2043,81.65367,,
2042,81.70718,,
2041,81.72489,,
2040,81.77854,,
2039,81.83851,,
2038,81.88763,,
2037,81.92006,,
2036,81.9447,,
2035,82.00806,,
2034,82.06713,,
2033,82.09517,,
2032,82.13267,,
2031,82.18138,,
2030,82.22605,,
2029,82.272,,
2028,82.3154,,
2027,82.34,,
2026,82.39919,,
2025,82.45638,,
2024,82.48077,,
2023,82.51831,,
2022,82.54168,,
2021,82.57069,,
2020,82.62623,,
2019,82.67091,,
2018,82.70409,,
2017,82.73985,,
2016,82.76235,,
2015,82.80001,,
2014,82.84233,,
2013,82.865,,
2012,82.90152,,
2011,82.95009,,
2010,82.99203,,
2009,83.01702,,
2008,83.03564,,
2007,83.07395,,
2006,83.11565,,
2005,83.1566,,
2004,83.20789,,
2003,83.25371,,
2002,83.28346,,
2001,83.30308,,
2000,83.35292,,
1999,83.40731,,
1998,83.45717,,
1997,83.46581,,
1996,83.484,,
1995,83.53216,,
1994,83.57487,,
1993,83.6343,,
1992,83.67229,,
1991,83.70485,,
1990,83.74461,,
1989,83.78955,,
1988,83.83577,,
1987,83.87738,,
1986,83.91573,,
1985,83.95486,,
1984,83.99495,,
1983,84.02464,,
1982,84.05921,,
1981,84.10768,,
1980,84.14155,,
1979,84.16961,,
1978,84.20295,,
1977,84.24721,,
1976,84.29322,,
1975,84.31823,,
1974,84.33513,,
1973,84.37243,,
1972,84.41754,,
1971,84.4474,,
1970,84.49683,,
1969,84.52424,,
1968,84.59191,,
1967,84.6324,,
1966,84.66946,,
1965,84.70468,,
1964,84.77633,,
1963,84.83081,,
1962,84.83634,,
1961,84.87542,,
1960,84.91098,,
1959,84.99519,,
1958,85.02451,,
1957,85.05863,,
1956,85.08148,,
1955,85.10485,,
1954,85.15108,,
1953,85.21053,,
1952,85.22954,,
1951,85.23408,,
1950,85.26764,,
1949,85.37284,,
1948,85.37936,,
1947,85.36432,,
1946,85.39825,,
1945,85.43884,,
1944,85.46569,,
1943,85.53215,,
1942,85.53524,,
1941,85.53603,,
1940,85.56761,,
1939,85.58907,,
1938,85.6042,,
1937,85.63116,,
1936,85.654,,
1935,85.67529,,
1934,85.67538,,
1933,85.70024,,
1932,85.70752,,
1931,85.73387,,
1930,85.74208,,
1929,85.76429,,
1928,85.76891,,
1927,85.78158,,
1926,85.7689,,
1925,85.77549,,
1924,85.7807,,
1923,85.78904,,
1922,85.77095,,
1921,85.76444,,
1920,85.78019,,
1919,85.76993,,
1918,85.77398,,
1917,85.76685,,
1916,85.76714,,
1915,85.75218,,
1914,85.74341,,
1913,85.74341,,
1912,85.74256,,
1911,85.68228,,
1910,85.62698,,
1909,85.64617,,
1908,85.59281,,
1907,85.56729,,
1906,85.52568,,
1905,85.48387,,
1904,85.51519,,
1903,85.50256,,
1902,85.5353,,
1901,85.54551,,
1900,85.51593,,
1899,85.48339,,
1898,85.47308,,
1897,85.4517,,
1896,85.41695,,
1895,85.41556,,
1894,85.36636,,
1893,85.32864,,
1892,85.30519,,
1891,85.2447,,
1890,85.20481,,
1889,85.19185,,
1888,85.19246,,
1887,85.17386,,
1886,85.10862,,
1885,85.08478,,
1884,85.01372,,
1883,84.9651,,
1882,84.92155,,
1881,84.87261,,
1880,84.79323,,
1879,84.72447,,
1878,84.67849,,
1877,84.64258,,
1876,84.5975,,
1875,84.52838,,
1874,84.49176,,
1873,84.49958,,
1872,84.51258,,
1871,84.51198,,
1870,84.48557,,
1869,84.36342,,
1868,84.31084,,
1867,84.27287,,
1866,84.24932,,
1865,84.25464,,
1864,84.2194,,
1863,84.18201,,
1862,84.14497,,
1861,84.05051,,
1860,84.07301,,
1859,84.05022,,
1858,84.05948,,
1857,84.07697,,
1856,84.03907,,
1855,84.0237,,
1854,83.98771,,
1853,83.91713,,
1852,83.89085,,
1851,83.88017,,
1850,83.83774,,
1849,83.83207,,
1848,83.78911,,
1847,83.78088,,
1846,83.80358,,
1845,83.83328,,
1844,83.83759,,
1843,83.88854,,
1842,83.82835,,
1841,83.80275,,
1840,83.76104,,
1839,83.75386,,
1838,83.78693,,
1837,83.78196,,
1836,83.77662,,
1835,83.78515,,
1834,83.79842,,
1833,83.82946,,
1832,83.89237,,
1831,83.91985,,
1830,83.88917,,
1829,83.91238,,
1828,83.95559,,
1827,83.98179,,
1826,83.99868,,
1825,84.06043,,
1824,84.12439,,
1823,84.19107,,
1822,84.27288,,
1821,84.28921,,
1820,84.31509,,
1819,84.35943,,
1818,84.37161,,
1817,84.47463,,
1816,84.48682,,
1815,84.51573,,
1814,84.56794,,
1813,84.59289,,
1812,84.61529,,
1811,84.64547,,
1810,84.66866,,
1809,84.69835,,
1808,84.76727,,
1807,84.7895,,
1806,84.8454,,
1805,84.87045,,
1804,84.90986,,
1803,84.96294,,
1802,84.96747,,
1801,84.98772,,
1800,85.02826,,
1799,85.05035,,
1798,85.0557,,
1797,85.07253,,
1796,85.10376,,
1795,85.10384,,
1794,85.11742,,
1793,85.15469,,
1792,85.14824,,
1791,85.17598,,
1790,85.156,,
1789,85.15404,,
1788,85.14668,,
1787,85.11589,,
1786,85.09384,,
1785,85.06381,,
1784,85.04622,,
1783,85.00624,,
1782,84.97506,,
1781,84.89392,,
1780,84.84903,,
1779,84.79836,,
1778,84.72756,,
1777,84.66263,,
1776,84.57173,,
1775,84.49617,,
1774,84.40759,,
1773,84.35311,,
1772,84.2857,,
1771,84.2292,,
1770,84.16521,,
1769,84.13277,,
1768,84.09796,,
1767,84.08678,,
1766,84.0744,,
1765,84.0422,,
1764,84.02003,,
1763,83.97543,,
1762,83.96467,,
1761,83.95648,,
1760,83.91534,,
1759,83.90017,,
1758,83.85464,,
1757,83.78317,,
1756,83.71982,,
1755,83.65432,,
1754,83.5751,,
1753,83.50055,,
1752,83.41761,,
1751,83.30635,,
1750,83.19266,,
1749,83.07646,,
1748,82.95522,,
1747,82.83409,,
1746,82.70052,,
1745,82.55708,,
1744,82.44282,,
1743,82.30749,,
1742,82.18227,,
1741,82.06549,,
1740,81.99507,,
1739,81.93401,,
1738,81.91348,,
1737,81.83517,,
1736,81.80865,,
1735,81.78575,,
1734,81.79307,,
1733,81.80578,,
1732,81.81293,,
1731,81.82823,,
1730,81.81985,,
1729,81.80926,,
1728,81.80624,,
1727,81.82169,,
1726,81.80405,,
1725,81.79181,,
1724,81.7984,,
1723,81.82712,,
1722,81.88091,,
1721,81.94833,,
1720,82.00337,,
1719,82.08334,,
1718,82.15385,,
1717,82.23417,,
1716,82.30787,,
1715,82.40057,,
1714,82.47815,,
1713,82.5147,,
1712,82.52758,,
1711,82.51588,,
1710,82.49104,,
1709,82.47036,,
1708,82.47123,,
1707,82.47413,,
1706,82.42558,,
1705,82.40085,,
1704,82.38246,,
1703,82.36221,,
1702,82.38101,,
1701,82.42744,,
1700,82.52755,,
1699,82.64072,,
1698,82.79336,,
1697,82.96906,,
1696,83.11589,,
1695,83.22126,,
1694,83.31136,,
1693,83.36072,,
1692,83.4074,,
1691,83.45731,,
1690,83.53819,,
1689,83.67033,,
1688,83.83709,,
1687,84.01964,,
1686,84.23777,,
1685,84.49591,,
1684,84.725,,
1683,84.91381,,
1682,85.04152,,
1681,85.11638,,
1680,85.14148,,
1679,85.10422,,
1678,85.00354,,
1677,84.88269,,
1676,84.75502,,
1675,84.61231,,
1674,84.46515,,
1673,84.36881,,
1672,84.31664,,
1671,84.33826,,
1670,84.43104,,
1669,84.58195,,
1668,84.79952,,
1667,85.07825,,
1666,85.41236,,
1665,85.74069,,
1664,86.03575,,
1663,86.3052,,
1662,86.53771,,
1661,86.76023,,
1660,86.95472,,
1659,87.10074,,
1658,87.22135,,
1657,87.32958,,
1656,87.39452,,
1655,87.43707,,
1654,87.4751,,
1653,87.49748,,
1652,87.51416,,
1651,87.50924,,
1650,87.50095,,
1649,87.49617,,
1648,87.49343,,
1647,87.50771,,
1646,87.53493,,
1645,87.57294,,
1644,87.6445,,
1643,87.69201,,
1642,87.70844,,
1641,87.72881,,
1640,87.70599,,
1639,87.66355,,
1638,87.64313,,
1637,87.65705,,
1636,87.64858,,
1635,87.61222,,
1634,87.58169,,
1633,87.57065,,
1632,87.55329,,
1631,87.54747,,
1630,87.56504,,
1629,87.56964,,
1628,87.56445,,
1627,87.55816,,
1626,87.5314,,
1625,87.49596,,
1624,87.46362,,
1623,87.43437,,
1622,87.38093,,
1621,87.37446,,
1620,87.36834,,
1619,87.35255,,
1618,87.34756,,
1617,87.35558,,
1616,87.35635,,
1615,87.3557,,
1614,87.35048,,
1613,87.34919,,
1612,87.35325,,
1611,87.35111,,
1610,87.33701,,
1609,87.33992,,
1608,87.34879,,
1607,87.32486,,
1606,87.30166,,
1605,87.29457,,
1604,87.29469,,
1603,87.30199,,
1602,87.30937,,
1601,87.31221,,
1600,87.31775,,
1599,87.33138,,
1598,87.33295,,
1597,87.32311,,
1596,87.29989,,
1595,87.28819,,
1594,87.28544,,
1593,87.29488,,
1592,87.28804,,
1591,87.24634,,
1590,87.28041,,
1589,87.26738,,
1588,87.24786,,
1587,87.25185,,
1586,87.23398,,
1585,87.22639,,
1584,87.21305,,
1583,87.17782,,
1582,87.15458,,
1581,87.14183,,
1580,87.11232,,
1579,87.0978,,
1578,87.07596,,
1577,87.05065,,
1576,87.04605,,
1575,87.00901,,
1574,86.96374,,
1573,86.95014,,
1572,86.95473,,
1571,86.9246,,
1570,86.89929,,
1569,86.86634,,
1568,86.83566,,
1567,86.80289,,
1566,86.76594,,
1565,86.76383,,
1564,86.73164,,
1563,86.70275,,
1562,86.65725,,
1561,86.63293,,
1560,86.64209,,
1559,86.58632,,
1558,86.51251,,
1557,86.45736,,
1556,86.40099,,
1555,86.3604,,
1554,86.31587,,
1553,86.27349,,
1552,86.23856,,
1551,86.18698,,
1550,86.14266,,
1549,86.08898,,
1548,86.06679,,
1547,86.02343,,
1546,86.01495,,
1545,85.99734,,
1544,86.01521,,
1543,86.01912,,
1542,86.04503,,
1541,86.07501,,
1540,86.097,,
1539,86.10481,,
1538,86.16431,,
1537,86.22296,,
1536,86.25886,,
1535,86.30628,,
1534,86.38649,,
1533,86.45132,,
1532,86.54219,,
1531,86.59994,,
1530,86.71573,,
1529,86.83301,,
1528,86.92005,,
1527,87.02803,,
1526,87.13611,,
1525,87.23827,,
1524,87.33071,,
1523,87.41046,,
1522,87.49391,,
1521,87.61693,,
1520,87.70698,,
1519,87.81852,,
1518,87.92104,,
1517,88.01816,,
1516,88.09628,,
1515,88.17137,,
1514,88.26309,,
1513,88.28478,,
1512,88.38364,,
1511,88.45082,,
1510,88.52616,,
1509,88.55607,,
1508,88.61474,,
1507,88.62547,,
1506,88.67949,,
1505,88.69241,,
1504,88.68226,,
1503,88.6995,,
1502,88.70216,,
1501,88.72251,,
1500,88.71938,,
1499,88.72146,,
1498,88.64663,,
1497,88.6505,,
1496,88.59643,,
1495,88.5501,,
1494,88.47741,,
1493,88.45935,,
1492,88.36917,,
1491,88.30203,,
1490,88.22614,,
1489,88.17105,,
1488,88.08085,,
1487,87.99582,,
1486,87.91001,,
1485,87.7791,,
1484,87.6766,,
1483,87.56288,,
1482,87.47032,,
1481,87.34436,,
1480,87.24755,,
1479,87.11065,,
1478,86.98072,,
1477,86.8581,,
1476,86.73219,,
1475,86.71217,,
1474,86.58306,,
1473,86.46437,,
1472,86.35252,,
1471,86.24796,,
1470,86.15515,,
1469,86.05152,,
1468,85.96121,,
1467,85.88972,,
1466,85.82623,,
1465,85.74772,,
1464,85.66912,,
1463,85.58,,
1462,85.55688,,
1461,85.51999,,
1460,85.4751,,
1459,85.44665,,
1458,85.43891,,
1457,85.43508,,
1456,85.42528,,
1455,85.4137,,
1454,85.43218,,
1453,85.43211,,
1452,85.44913,,
1451,85.47787,,
1450,85.50618,,
1449,85.53085,,
1448,85.62025,,
1447,85.6204,,
1446,85.69012,,
1445,85.75222,,
1444,85.80259,,
1443,85.8463,,
1442,85.9182,,
1441,86.03143,,
1440,86.10735,,
1439,86.19306,,
1438,86.27585,,
1437,86.36954,,
1436,86.45054,,
1435,86.53475,,
1434,86.62681,,
1433,86.75159,,
1432,86.86302,,
1431,86.9767,,
1430,87.09469,,
1429,87.27733,,
1428,87.4026,,
1427,87.57408,,
1426,87.71969,,
1425,87.88195,,
1424,88.05171,,
1423,88.21395,,
1422,88.37697,,
1421,88.51313,,
1420,88.67986,,
1419,88.83019,,
1418,88.9169,,
1417,89.03542,,
1416,89.13712,,
1415,89.19305,,
1414,89.21542,,
1413,89.26398,,
1412,89.29346,,
1411,89.28019,,
1410,89.32588,,
1409,89.29279,,
1408,89.24558,,
1407,89.17241,,
1406,89.09597,,
1405,89.03217,,
1404,88.98429,,
1403,88.8332,,
1402,88.78545,,
1401,88.63066,,
1400,88.50822,,
1399,88.39584,,
1398,88.26628,,
1397,88.19273,,
1396,88.0395,,
1395,87.9403,,
1394,87.81643,,
1393,87.72796,,
1392,87.63172,,
1391,87.54376,,
1390,87.49622,,
1389,87.40002,,
1388,87.34964,,
1387,87.29159,,
1386,87.24993,,
1385,87.24428,,
1384,87.2349,,
1383,87.16249,,
1382,87.1544,,
1381,87.13964,,
1380,87.17618,,
1379,87.22588,,
1378,87.3244,,
1377,87.3568,,
1376,87.44781,,
1375,87.5279,,
1374,87.59594,,
1373,87.72493,,
1372,87.86382,,
1371,87.98794,,
1370,88.11521,,
1369,88.24972,,
1368,88.38359,,
1367,88.52671,,
1366,88.68556,,
1365,88.875,,
1364,89.05249,,
1363,89.25405,,
1362,89.42293,,
1361,89.60021,,
1360,89.74021,,
1359,89.84926,,
1358,89.91957,,
1357,90.10221,,
1356,90.25113,,
1355,90.39621,,
1354,90.53322,,
1353,90.66495,,
1352,90.78068,,
1351,90.83146,,
1350,90.88184,,
1349,90.91162,,
1348,90.93479,,
1347,90.95184,,
1346,90.9522,,
1345,90.91352,,
